PixelSpacing = 1.94
Voltage = 300
Version = SerialEM Version 4.0.6 64-bit,  built Apr 30 2022  23:07:13
ImageFile = chrom_07_ts_010.mrc
ImageSize = 4096 4096
DataMode = 1

[T = SerialEM: eBIC Krios 3                                  01-Aug-2022  18:58:31]

[T = Tilt axis angle = 83.8, binning = 1  spot = 10  camera = 1]

[ZValue = 0]
MinMaxMean = 10 2585 1127.67
TiltAngle = -0.00949884
StagePosition = 96.1834 -231.96
StageZ = 2.81224
Magnification = 64000
Intensity = 0.109063
ExposureDose = 0
DoseRate = 5.45454
PixelSpacing = 1.94
SpotSize = 10
Defocus = -0.734985
ImageShift = 8.46078 8.62732
RotationAngle = 173.818
ExposureTime = 1.49179
Binning = 1
CameraIndex = 1
DividedBy2 = 0
OperatingMode = 1
MagIndex = 28
LowDoseConSet = 4
CountsPerElectron = 165.5
TargetDefocus = -5.5
SubFramePath = \\192.168.10.81\StorageServer\OffloadData\\TemScripting\EF-Falcon\nt29812_98_frames\chrom_07_ts_010_167_000_-0.0.mrc
NumSubFrames = 10
FrameDosesAndNumber = 0 7  0 3
DateTime = 01-Aug-2022  18:58:35
NavigatorLabel = 167
FilterSlitAndLoss = 10 0
UncroppedSize = -4096 -4096
SpecimenShift = -11.082555354689212 3.724272440521471
EucentricOffset = 0.0
CtfFind = -5.54383515625

[ZValue = 1]
MinMaxMean = 14 2411 1143.65
TiltAngle = 2.98863
StagePosition = 96.1942 -231.936
StageZ = 2.81224
Magnification = 64000
Intensity = 0.109063
ExposureDose = 0
DoseRate = 5.53759
PixelSpacing = 1.94
SpotSize = 10
Defocus = -0.945112
ImageShift = 8.49345 8.62404
RotationAngle = 173.818
ExposureTime = 1.49179
Binning = 1
CameraIndex = 1
DividedBy2 = 0
OperatingMode = 1
MagIndex = 28
LowDoseConSet = 4
CountsPerElectron = 165.5
TargetDefocus = -5.5
SubFramePath = \\192.168.10.81\StorageServer\OffloadData\\TemScripting\EF-Falcon\nt29812_98_frames\chrom_07_ts_010_167_000_3.0.mrc
NumSubFrames = 10
FrameDosesAndNumber = 0 7  0 3
DateTime = 01-Aug-2022  18:59:43
NavigatorLabel = 167
FilterSlitAndLoss = 10 0
UncroppedSize = -4096 -4096
SpecimenShift = -11.095494943858743 3.764766291669828
EucentricOffset = -0.43943243761051437
CtfFind = -5.489965625

[ZValue = 2]
MinMaxMean = 4 2385 1136.43
TiltAngle = 5.98627
StagePosition = 96.2 -231.913
StageZ = 2.81224
Magnification = 64000
Intensity = 0.109063
ExposureDose = 0
DoseRate = 5.51126
PixelSpacing = 1.94
SpotSize = 10
Defocus = -1.15647
ImageShift = 8.4871 8.65401
RotationAngle = 173.818
ExposureTime = 1.49179
Binning = 1
CameraIndex = 1
DividedBy2 = 0
OperatingMode = 1
MagIndex = 28
LowDoseConSet = 4
CountsPerElectron = 165.5
TargetDefocus = -5.5
SubFramePath = \\192.168.10.81\StorageServer\OffloadData\\TemScripting\EF-Falcon\nt29812_98_frames\chrom_07_ts_010_167_000_6.0.mrc
NumSubFrames = 10
FrameDosesAndNumber = 0 7  0 3
DateTime = 01-Aug-2022  19:00:50
NavigatorLabel = 167
FilterSlitAndLoss = 10 0
UncroppedSize = -4096 -4096
SpecimenShift = -11.103823291575353 3.7704676754653748
EucentricOffset = -0.4347132460409384
CtfFind = -5.441015234375

[ZValue = 3]
MinMaxMean = 10 2428 1122.55
TiltAngle = -3.00913
StagePosition = 96.1786 -231.952
StageZ = 2.81224
Magnification = 64000
Intensity = 0.109063
ExposureDose = 0
DoseRate = 5.42784
PixelSpacing = 1.94
SpotSize = 10
Defocus = -0.394074
ImageShift = 8.44734 8.656
RotationAngle = 173.818
ExposureTime = 1.49179
Binning = 1
CameraIndex = 1
DividedBy2 = 0
OperatingMode = 1
MagIndex = 28
LowDoseConSet = 4
CountsPerElectron = 165.5
TargetDefocus = -5.5
SubFramePath = \\192.168.10.81\StorageServer\OffloadData\\TemScripting\EF-Falcon\nt29812_98_frames\chrom_07_ts_010_167_000_-3.0.mrc
NumSubFrames = 10
FrameDosesAndNumber = 0 7  0 3
DateTime = 01-Aug-2022  19:02:12
NavigatorLabel = 167
FilterSlitAndLoss = 10 0
UncroppedSize = -4096 -4096
SpecimenShift = -11.082625183616528 3.7278248703973773
EucentricOffset = 0.0
CtfFind = -5.4276671875

[ZValue = 4]
MinMaxMean = 5 2503 1133.06
TiltAngle = -6.00926
StagePosition = 96.1601 -231.957
StageZ = 2.81224
Magnification = 64000
Intensity = 0.109063
ExposureDose = 0
DoseRate = 5.4864
PixelSpacing = 1.94
SpotSize = 10
Defocus = -0.184523
ImageShift = 8.49701 8.59343
RotationAngle = 173.818
ExposureTime = 1.49179
Binning = 1
CameraIndex = 1
DividedBy2 = 0
OperatingMode = 1
MagIndex = 28
LowDoseConSet = 4
CountsPerElectron = 165.5
TargetDefocus = -5.5
SubFramePath = \\192.168.10.81\StorageServer\OffloadData\\TemScripting\EF-Falcon\nt29812_98_frames\chrom_07_ts_010_167_000_-6.0.mrc
NumSubFrames = 10
FrameDosesAndNumber = 0 7  0 3
DateTime = 01-Aug-2022  19:03:24
NavigatorLabel = 167
FilterSlitAndLoss = 10 0
UncroppedSize = -4096 -4096
SpecimenShift = -11.088183358161622 3.683181681977047
EucentricOffset = -0.2689452769808546
CtfFind = -5.4670171875

[ZValue = 5]
MinMaxMean = 2 2401 1131.79
TiltAngle = 8.9879
StagePosition = 96.199 -231.874
StageZ = 2.81224
Magnification = 64000
Intensity = 0.109063
ExposureDose = 0
DoseRate = 5.49843
PixelSpacing = 1.94
SpotSize = 10
Defocus = -1.44826
ImageShift = 8.49577 8.66833
RotationAngle = 173.818
ExposureTime = 1.49179
Binning = 1
CameraIndex = 1
DividedBy2 = 0
OperatingMode = 1
MagIndex = 28
LowDoseConSet = 4
CountsPerElectron = 165.5
TargetDefocus = -5.5
SubFramePath = \\192.168.10.81\StorageServer\OffloadData\\TemScripting\EF-Falcon\nt29812_98_frames\chrom_07_ts_010_167_000_9.0.mrc
NumSubFrames = 10
FrameDosesAndNumber = 0 7  0 3
DateTime = 01-Aug-2022  19:04:42
NavigatorLabel = 167
FilterSlitAndLoss = 10 0
UncroppedSize = -4096 -4096
SpecimenShift = -11.119136212011146 3.7720431578973614
EucentricOffset = -0.465427953584455
CtfFind = -5.41716640625

[ZValue = 6]
MinMaxMean = 2 2490 1130.71
TiltAngle = 11.9825
StagePosition = 96.2058 -231.847
StageZ = 2.81224
Magnification = 64000
Intensity = 0.109063
ExposureDose = 0
DoseRate = 5.49088
PixelSpacing = 1.94
SpotSize = 10
Defocus = -1.65938
ImageShift = 8.5296 8.62119
RotationAngle = 173.818
ExposureTime = 1.49179
Binning = 1
CameraIndex = 1
DividedBy2 = 0
OperatingMode = 1
MagIndex = 28
LowDoseConSet = 4
CountsPerElectron = 165.5
TargetDefocus = -5.5
SubFramePath = \\192.168.10.81\StorageServer\OffloadData\\TemScripting\EF-Falcon\nt29812_98_frames\chrom_07_ts_010_167_000_12.0.mrc
NumSubFrames = 10
FrameDosesAndNumber = 0 7  0 3
DateTime = 01-Aug-2022  19:05:50
NavigatorLabel = 167
FilterSlitAndLoss = 10 0
UncroppedSize = -4096 -4096
SpecimenShift = -11.125529053279028 3.724448403716786
EucentricOffset = -0.4250220486769567
CtfFind = -5.295771875

[ZValue = 7]
MinMaxMean = 10 2426 1134.4
TiltAngle = -9.0099
StagePosition = 96.1406 -231.976
StageZ = 2.81224
Magnification = 64000
Intensity = 0.109063
ExposureDose = 0
DoseRate = 5.49993
PixelSpacing = 1.94
SpotSize = 10
Defocus = 0.0986291
ImageShift = 8.53386 8.5451
RotationAngle = 173.818
ExposureTime = 1.49179
Binning = 1
CameraIndex = 1
DividedBy2 = 0
OperatingMode = 1
MagIndex = 28
LowDoseConSet = 4
CountsPerElectron = 165.5
TargetDefocus = -5.5
SubFramePath = \\192.168.10.81\StorageServer\OffloadData\\TemScripting\EF-Falcon\nt29812_98_frames\chrom_07_ts_010_167_000_-9.0.mrc
NumSubFrames = 10
FrameDosesAndNumber = 0 7  0 3
DateTime = 01-Aug-2022  19:07:14
NavigatorLabel = 167
FilterSlitAndLoss = 10 0
UncroppedSize = -4096 -4096
SpecimenShift = -11.098428750596561 3.632554899326634
EucentricOffset = -0.3276790140575886
CtfFind = -5.38020703125

[ZValue = 8]
MinMaxMean = 7 2365 1134.63
TiltAngle = -12.011
StagePosition = 96.1319 -231.977
StageZ = 2.81224
Magnification = 64000
Intensity = 0.109063
ExposureDose = 0
DoseRate = 5.50393
PixelSpacing = 1.94
SpotSize = 10
Defocus = 0.302183
ImageShift = 8.5553 8.50465
RotationAngle = 173.818
ExposureTime = 1.49179
Binning = 1
CameraIndex = 1
DividedBy2 = 0
OperatingMode = 1
MagIndex = 28
LowDoseConSet = 4
CountsPerElectron = 165.5
TargetDefocus = -5.5
SubFramePath = \\192.168.10.81\StorageServer\OffloadData\\TemScripting\EF-Falcon\nt29812_98_frames\chrom_07_ts_010_167_000_-12.0.mrc
NumSubFrames = 10
FrameDosesAndNumber = 0 7  0 3
DateTime = 01-Aug-2022  19:08:27
NavigatorLabel = 167
FilterSlitAndLoss = 10 0
UncroppedSize = -4096 -4096
SpecimenShift = -11.099777771026702 3.600348600457891
EucentricOffset = -0.21827976603002525
CtfFind = -5.4339953125

[ZValue = 9]
MinMaxMean = 8 2478 1121.28
TiltAngle = 14.9877
StagePosition = 96.2049 -231.818
StageZ = 2.81224
Magnification = 64000
Intensity = 0.109063
ExposureDose = 0
DoseRate = 5.42531
PixelSpacing = 1.94
SpotSize = 10
Defocus = -2.06528
ImageShift = 8.55561 8.58989
RotationAngle = 173.818
ExposureTime = 1.49179
Binning = 1
CameraIndex = 1
DividedBy2 = 0
OperatingMode = 1
MagIndex = 28
LowDoseConSet = 4
CountsPerElectron = 165.5
TargetDefocus = -5.5
SubFramePath = \\192.168.10.81\StorageServer\OffloadData\\TemScripting\EF-Falcon\nt29812_98_frames\chrom_07_ts_010_167_000_15.0.mrc
NumSubFrames = 10
FrameDosesAndNumber = 0 7  0 3
DateTime = 01-Aug-2022  19:09:46
NavigatorLabel = 167
FilterSlitAndLoss = 10 0
UncroppedSize = -4096 -4096
SpecimenShift = -11.137285365115257 3.672050912382747
EucentricOffset = -0.18918574089447426
CtfFind = -5.4643640625

[ZValue = 10]
MinMaxMean = 3 2361 1118.97
TiltAngle = 17.9858
StagePosition = 96.2097 -231.796
StageZ = 2.81224
Magnification = 64000
Intensity = 0.109063
ExposureDose = 0
DoseRate = 5.41317
PixelSpacing = 1.94
SpotSize = 10
Defocus = -2.26964
ImageShift = 8.58561 8.56125
RotationAngle = 173.818
ExposureTime = 1.49179
Binning = 1
CameraIndex = 1
DividedBy2 = 0
OperatingMode = 1
MagIndex = 28
LowDoseConSet = 4
CountsPerElectron = 165.5
TargetDefocus = -5.5
SubFramePath = \\192.168.10.81\StorageServer\OffloadData\\TemScripting\EF-Falcon\nt29812_98_frames\chrom_07_ts_010_167_000_18.0.mrc
NumSubFrames = 10
FrameDosesAndNumber = 0 7  0 3
DateTime = 01-Aug-2022  19:10:55
NavigatorLabel = 167
FilterSlitAndLoss = 10 0
UncroppedSize = -4096 -4096
SpecimenShift = -11.147974422813583 3.6449080512593786
EucentricOffset = -0.23840378422883057
CtfFind = -5.34618828125

